,eastwest,northsouth,angle,radialposition,velocity
0,0.6446158633848439,0.11045366639595461,0.7468879668049793,0.8464384741455508,0.9836065573770489
1,0.6361999405008275,0.1331360999187864,0.7468879668049793,0.8251618903612903,0.9289617486338799
2,0.6277840176168112,0.1558185334416181,0.7468879668049793,0.80388530657703,0.9289617486338799
3,0.6193680866714502,0.17850098623129557,0.7468879668049793,0.7826087046119805,0.9535519125683058
4,0.6109521557260892,0.20118343902097297,0.7468879668049793,0.7613321026469313,0.9316939890710381
5,0.6025362328420729,0.2238658725438047,0.7468879668049793,0.7400555188626708,0.9180327868852456
6,0.5941203018967119,0.2465483253334821,0.7468879668049793,0.7187789168976215,0.9316939890710381
7,0.5857043790126956,0.26923077812315954,0.7468879668049793,0.6975023158873035,0.9398907103825134
8,0.5772884480673346,0.29191321164599127,0.7468879668049793,0.6762257311483119,0.8879781420765025
9,0.568872521152646,0.31459566443566866,0.7468879668049793,0.6549491296606281,0.8224043715846991
10,0.5600906857740742,0.3382643003537855,0.7468879668049793,0.6327474680710732,0.8251366120218582
11,0.5516747548287132,0.3609467435100401,0.7468879668049793,0.6114708747190527,0.819672131147541
12,0.5432588279140246,0.3836291962997175,0.7468879668049793,0.5901942732313691,0.7240437158469946
13,0.5348429030146721,0.40631162982254926,0.7468879668049793,0.5689176892084258,0.6994535519125686
14,0.5264269740846472,0.4289940826122267,0.7468879668049793,0.5476410874820593,0.7404371584699452
15,0.5180110471699586,0.4516765305851927,0.7468879668049793,0.52636449030089,0.653005464480874
16,0.5095951197514359,0.47435897614980294,0.7468879668049793,0.5050878952133072,0.5928961748633879
17,0.501179191923548,0.49704142224124104,0.7468879668049793,0.483811299606217,0.46994535519125646
18,0.49276326441055646,0.5197238696873793,0.7468879668049793,0.46253470282521375,0.5273224043715845
19,0.4843473374958678,0.5424063128436338,0.7468879668049793,0.4412581099505589,0.40710382513661214
20,0.475931408565843,0.5650887608165998,0.7468879668049793,0.4199815125307068,0.35245901639344224
21,0.4675154816511543,0.5877712039728544,0.7468879668049793,0.3987049196560519,0.265027322404372
22,0.45909955473646563,0.6104536567625318,0.7468879668049793,0.3774283181683683,0.30601092896174853
23,0.450683627821777,0.6331360902853636,0.7468879668049793,0.35615173390674226,0.2431693989071042
24,0.44190179244320527,0.6568047262034804,0.7468879668049793,0.3339500723171873,0.2513661202185795
25,0.4334858614978443,0.6794871789931578,0.7468879668049793,0.312673470352138,0.22404371584699456
26,0.42506993861382797,0.7021696317828352,0.7468879668049793,0.2913968693418199,0.1967213114754096
27,0.416654007668467,0.7248520845725126,0.7468879668049793,0.27012026737677064,0.16120218579234935
28,0.408238076723106,0.7475345180953443,0.7468879668049793,0.24884368263777887,0.12568306010928953
29,0.3998221538390897,0.7702169516181762,0.7468879668049793,0.2275670988535185,0.1229508196721314
30,0.3914062228937287,0.7928994236746991,0.7468879668049793,0.2062904796624116,0.12841530054644812
31,0.3829902919483677,0.8155818764643766,0.7468879668049793,0.18501387769736216,0.13661202185792343
32,0.3745743690643514,0.8382643099872084,0.7468879668049793,0.16373729391310177,0.11475409836065564
33,0.366158446180335,0.8609467435100402,0.7468879668049793,0.14246071012884137,0.15300546448087404
34,0.3577425152349741,0.8836291770328719,0.7468879668049793,0.12118412538984974,0.11475409836065564
35,0.3409106533442521,0.9289941211459181,0.7468879668049793,0.07863088700763582,0.2103825136612021
36,0.3152969560749584,0.9980276530099668,0.7468879668049793,0.013876030101011183,0.06557377049180335
37,0.9719412646560083,0.5583658599432877,0.0,0.7483811387288681,0.6065573770491803
38,0.858055875823821,0.543280126911483,0.0,0.684551351014509,0.5710382513661201
39,0.8200940687979659,0.5382515476286444,0.0,0.6632747490494597,0.540983606557377
40,0.7821322940174892,0.5332229731625171,0.0,0.6419981652651994,0.543715846994536
41,0.7441704869916339,0.5281943962880341,0.0,0.6207215637775156,0.5245901639344264
42,0.7062087122111572,0.5231658194135511,0.0,0.5994449709028608,0.5300546448087435
43,0.6682469051853019,0.5181372425390681,0.0,0.578168378028206,0.5546448087431695
44,0.6302851062207914,0.5131086656645851,0.0,0.5568917808470366,0.540983606557377
45,0.5906727953093035,0.507861453442284,0.0,0.5346901144736017,0.5710382513661201
46,0.5527110003754653,0.5028328765678011,0.0,0.5134135194456896,0.6557377049180331
47,0.5147492044339589,0.49780429924175135,0.0,0.4921369237899572,0.5081967213114758
48,0.4767874084924525,0.49277572221674615,0.0,0.4708603281938955,0.4672131147540983
49,0.4388256155739504,0.4877471447401743,0.0,0.4495837341232706,0.4508196721311477
50,0.40086381660943976,0.4827185678656913,0.0,0.4283071369421013,0.4508196721311477
51,0.3629020337676184,0.4776899909912083,0.0,0.40703054837396085,0.4098360655737703
52,0.3249402267417632,0.4726614129125475,0.0,0.3857539466475944,0.46174863387978116
53,0.2869784358385973,0.4676328360380645,0.0,0.36447735377293944,0.4972677595628414
54,0.24901662881274195,0.4626042591635815,0.0,0.3432007522852558,0.4644808743169402
55,0.21105483790957602,0.4575756798807428,0.0,0.3219241589332353,0.4890710382513661
56,0.17309306312909933,0.4525471030062599,0.0,0.3006475746716092,0.46994535519125646
57,0.13513122385786552,0.4475185237234212,0.0,0.2793709554805023,0.43715846994535523
58,0.09716944907738878,0.4424899492572939,0.0,0.25809437169624183,0.44535519125683054
59,0.057557162349934965,0.43724273944334846,0.0,0.2358927187197158,0.47814207650273266
60,0.019595323078700988,0.4322141601605098,0.0,0.21461609952860883,0.4262295081967218
61,0.9050871147596256,0.23748647274766338,1.0,0.8085106429469668,0.8442622950819669
62,0.8785686766586926,0.2544781351358058,1.0,0.7872340607724568,0.8251366120218582
63,0.8520501740670026,0.2714697975239483,1.0,0.7659574545311825,0.8224043715846991
64,0.8255317037206911,0.28846145991209077,1.0,0.7446808603232902,0.8360655737704916
65,0.799013201129001,0.30545312230023325,1.0,0.7234042540820158,0.8306010928961753
66,0.7724947630280681,0.32244478468837573,1.0,0.702127671907506,0.8415300546448088
67,0.7448232946805831,0.3401752053730146,1.0,0.6799260069904803,0.8360655737704916
68,0.7183047920888931,0.3571668773945799,1.0,0.6586494003137857,0.8278688524590163
69,0.6917863378652709,0.37415853014929956,1.0,0.6373728125580049,0.8224043715846991
70,0.6652678675189594,0.391150192537442,1.0,0.6160962183501127,0.7732240437158473
71,0.6387493810499585,0.4081418549255845,1.0,0.5948196181255295,0.7103825136612021
72,0.6122309187649917,0.42513351249701553,1.0,0.5735430301520384,0.737704918032787
73,0.5857124403573356,0.44212517488515807,1.0,0.5522664329358007,0.7704918032786883
74,0.5591939619496794,0.4591168348649448,1.0,0.5309898373325908,0.6502732240437159
75,0.5326754875726957,0.4761084960489094,1.0,0.5097132424270397,0.6038251366120222
76,0.5061570106765416,0.4931001575339185,1.0,0.48843664637975226,0.5655737704918029
77,0.4796385347880557,0.5100918184168387,1.0,0.4671600511117649,0.4562841530054649
78,0.4531200604110719,0.5270834771924475,1.0,0.44588345781924166,0.41530054644808745
79,0.42660158603408804,0.5440751395805901,1.0,0.4246068621071767,0.40710382513661214
80,0.4000831076264319,0.5610668019687326,1.0,0.4033302648909389,0.35245901639344224
81,0.37241165540163623,0.5787972274700828,1.0,0.38112860276454896,0.31693989071038287
82,0.34589317699398014,0.5957888898582253,1.0,0.35985200554831115,0.2732240437158473
83,0.3193746905249793,0.6127805522463678,1.0,0.3385754053237279,0.2513661202185795
84,0.2928562201786678,0.6297722146345103,1.0,0.31729881111583574,0.23224043715846987
85,0.26633774983235625,0.6467638673892299,1.0,0.2960222233600549,0.2185792349726774
86,0.23981926336335557,0.663755549044218,1.0,0.2747456102312489,0.22950819672131173
87,0.21330079301704402,0.6807471921655148,1.0,0.2534690289275794,0.21311475409836111
88,0.18678232267073253,0.6977388545536574,1.0,0.2321924347196872,0.2349726775956289
89,0.16026385232442103,0.7147305169417998,1.0,0.21091584051179507,0.2786885245901636
90,0.13374538197810953,0.7317221793299422,1.0,0.18963924630390278,0.26229508196721296
91,0.10722687938641945,0.7487138417180847,1.0,0.16836264006262835,0.27049180327868827
92,0.08070840904010801,0.7657055041062273,1.0,0.14708604585473622,0.26775956284153013
93,0.05418993869379651,0.7826971664943696,1.0,0.1258094516468441,0.28415300546448075
94,0.027671468347485018,0.7996888096156665,1.0,0.10453287034317454,0.22950819672131173
95,0.0,0.8174192592005738,1.0,0.0823311860698151,0.2349726775956289
96,0.8129530395074248,0.011330253926236322,0.8174273858921162,0.9602220281086922,0.8934426229508197
97,0.7990184248803278,0.03302029076290386,0.8174273858921162,0.9389454213992189,0.9153005464480874
98,0.7850838424986093,0.05471032759957145,0.8174273858921162,0.9176688210128963,0.9726775956284155
99,0.7711492439942016,0.07640032590254764,0.8174273858921162,0.8963922504097408,0.9754098360655736
100,0.7426742046903096,0.12072343460347057,0.8174273858921162,0.8529139841131889,0.9699453551912565
101,0.7287396061859018,0.14241347144013822,0.8174273858921162,0.831637380565291,0.8360655737704916
102,0.7148050076814941,0.1641035082768057,0.8174273858921162,0.8103607801789685,0.9344262295081971
103,0.7008704252997757,0.18579350657978194,0.8174273858921162,0.7890842095758128,0.9617486338797812
104,0.6869358267953679,0.20748354341644948,0.8174273858921162,0.7678076060279149,0.9672131147540983
105,0.6730012121682709,0.22917358025311696,0.8174273858921162,0.7465309993184416,0.9535519125683058
106,0.6590666297865524,0.25086361708978455,0.8174273858921162,0.7252543989321191,0.9125683060109293
107,0.6451320312821447,0.27255363465960647,0.8174273858921162,0.7039778118565923,0.8989071038251368
108,0.6311974327777369,0.294243671496274,0.8174273858921162,0.6827012083086944,0.8825136612021862
109,0.6172628423346738,0.31593368906609587,0.8174273858921162,0.6614246228139553,0.8879781420765025
110,0.6033282357689214,0.33762372590276346,0.8174273858921162,0.6401480176852696,0.8579234972677594
111,0.5893936453258584,0.3593137531060082,0.8174273858921162,0.618871423954345,0.8114754098360657
112,0.5754590468214505,0.3810037803092529,0.8174273858921162,0.5975948286426327,0.6994535519125686
113,0.5615244483170427,0.4026938075124976,0.8174273858921162,0.5763182333309204,0.7322404371584699
114,0.5469840034868862,0.425326879376753,0.8174273858921162,0.5541165697918726,0.737704918032787
115,0.5330494049824785,0.4470169065799977,0.8174273858921162,0.5328399744801602,0.5245901639344264
116,0.5191148105087431,0.4687069313748867,0.8174273858921162,0.5115633820178881,0.6010928961748632
117,0.5051802140196715,0.49039696038439823,0.8174273858921162,0.49028678555708793,0.5792349726775954
118,0.4912456175305999,0.5120869893939097,0.8174273858921162,0.4690101890962877,0.4508196721311477
119,0.47731102104152834,0.5337770153929766,0.8174273858921162,0.4477335952092955,0.4098360655737703
120,0.46337642455245676,0.5554670474129327,0.8174273858921162,0.42645699617468724,0.3579234972677594
121,0.449441826048049,0.5771570794328889,0.8174273858921162,0.40518039674488215,0.31693989071038287
122,0.4355072356049859,0.5988470970027108,0.8174273858921162,0.3839038112501431,0.2950819672131151
123,0.42157263710057813,0.6205371242059555,0.8174273858921162,0.36262721593843084,0.265027322404372
124,0.40763803859617037,0.6422271514092002,0.8174273858921162,0.3413506206267184,0.1967213114754096
125,0.3937034481531073,0.6639171786124449,0.8174273858921162,0.3200740268957938,0.15300546448087404
126,0.3797688415873549,0.6856072154491125,0.8174273858921162,0.2987974217671081,0.16120218579234935
127,0.3658342511442918,0.7072972330189343,0.8174273858921162,0.27752083627236906,0.15300546448087404
128,0.3512938103448076,0.7299303048831898,0.8174273858921162,0.25531917352371525,0.1229508196721314
129,0.33735919571771056,0.7516203417198573,0.8174273858921162,0.23404256681424174,0.10655737704918034
130,0.32342461333599204,0.7733103592896793,0.8174273858921162,0.21276598290029042,0.08743169398907114
131,0.30949001483158434,0.7950003961263468,0.8174273858921162,0.19148937935239252,0.08743169398907114
132,0.29555541632717663,0.8166904136961686,0.8174273858921162,0.1702127922768657,0.057377049180328044
133,0.2816208178227688,0.8383804505328362,0.8174273858921162,0.1489361887289679,0.06830601092896194
134,0.2676862354410504,0.8600704488358124,0.8174273858921162,0.12765962128738778,0.09836065573770503
135,0.2537516208139533,0.8817605242061712,0.8174273858921162,0.10638298163317189,0.1502732240437159
136,0.2398170223095456,0.9034505610428388,0.8174273858921162,0.08510637808527405,0.16939890710382555
137,0.22588242380513784,0.9251405593458151,0.8174273858921162,0.06382980748211842,0.09016393442622972
138,0.21194784142341938,0.9468305961824826,0.8174273858921162,0.042553207095795964,0.07377049180327866
139,0.19801325904170092,0.9685205944854589,0.8174273858921162,0.02127663965421589,0.06830601092896194
140,0.1840786444146038,0.9902106698558177,0.8174273858921162,0.0,0.051912568306010876
141,0.939236647414456,0.739930144583034,0.25311203319502074,0.8122109404294036,0.40710382513661214
142,0.9107989966270045,0.724085148514241,0.25311203319502074,0.7909343083796836,0.4207650273224046
143,0.8811250257801801,0.7075512663789382,0.25311203319502074,0.7687326619481518,0.46994535519125646
144,0.8539238562789943,0.6923951949103468,0.25311203319502074,0.7483811328681219,0.3797814207650272
145,0.8254862699823,0.6765502181083995,0.25311203319502074,0.7271045386602297,0.44535519125683054
146,0.7970486836856056,0.6607052413064525,0.25311203319502074,0.7058279444523374,0.4508196721311477
147,0.7686111135116005,0.6448602645045053,0.25311203319502074,0.6845513566965566,0.46174863387978116
148,0.7401735110922167,0.6290152780691354,0.25311203319502074,0.663274750019862,0.4562841530054649
149,0.7117359409182117,0.6131703012671882,0.25311203319502074,0.6419981622640812,0.47540983606557363
150,0.6832983546215173,0.5973253148318182,0.25311203319502074,0.6207215620394979,0.47814207650273266
151,0.654860768324823,0.581480338029871,0.25311203319502074,0.5994449678316057,0.4289617486338799
152,0.6251867732939648,0.5649464462611453,0.25311203319502074,0.5772433057052158,0.4344262295081971
153,0.5979856037927789,0.5497903796092652,0.25311203319502074,0.5568917796335314,0.459016393442623
154,0.5683116047312484,0.5332564878405396,0.25311203319502074,0.5346901158941136,0.48633879781420797
155,0.5386376016390455,0.5167225936634582,0.25311203319502074,0.5124884490374951,0.5382513661202188
156,0.5102000183653554,0.5008776141521109,0.25311203319502074,0.49121185434717946,0.5027322404371586
157,0.48299885188717373,0.48572154659709743,0.25311203319502074,0.4708603289212013,0.47814207650273266
158,0.4545612676058155,0.4698765661826167,0.25311203319502074,0.4495837332635638,0.5081967213114758
159,0.4261236853397935,0.45403158456395815,0.25311203319502074,0.4283071376603539,0.5683060109289619
160,0.39892251583860755,0.43887551791207813,0.25311203319502074,0.40795561158866966,0.3907103825136615
161,0.3692485208077494,0.4223416261433524,0.25311203319502074,0.3857539494622797,0.513661202185792
162,0.34081093451105504,0.4064966493414053,0.25311203319502074,0.36447735525438746,0.5628415300546448
163,0.3123733482143606,0.39065166290603526,0.25311203319502074,0.3432007550298042,0.5928961748633879
164,0.28393576191766623,0.3748066861040881,0.25311203319502074,0.32192416082191205,0.5928961748633879
165,0.2554981917436612,0.358961709302141,0.25311203319502074,0.30064757306613116,0.48360655737704894
166,0.22706057320158823,0.343116722866771,0.25311203319502074,0.2793709599373251,0.5874316939890707
167,0.11083742666917235,0.2783589664585796,0.25311203319502074,0.19241444168748972,0.5218579234972682
168,0.0836362571679865,0.26320291425683384,0.25311203319502074,0.17206292464084233,0.4808743169398908
169,0.5349503849227575,0.03889841270477379,0.6639004149377594,0.9037928026634339,0.8989071038251368
170,0.5315582376043283,0.08532052863908712,0.6639004149377594,0.861239600695714,0.7677595628415301
171,0.5298621649527818,0.10853156733939812,0.6639004149377594,0.8399630173634096,0.87431693989071
172,0.528166088270563,0.1317426445734004,0.6639004149377594,0.818686398679892,0.846994535519126
173,0.5264700156190165,0.1549536832737114,0.6639004149377594,0.7974098153475878,0.8005464480874314
174,0.5247739409521338,0.17816474124086806,0.6639004149377594,0.7761332143396767,0.9426229508196724
175,0.5230778683005873,0.20137577994117906,0.6639004149377594,0.7548566310073723,0.9071038251366121
176,0.5213817936337046,0.22458683790833572,0.6639004149377594,0.7335800299994614,0.8934426229508197
177,0.519685718966822,0.2477978958754924,0.6639004149377594,0.7123034289915504,0.8797814207650272
178,0.5179896442999393,0.27100895384264906,0.6639004149377594,0.6910268279836395,0.8633879781420766
179,0.5162935716483928,0.29421999254296005,0.6639004149377594,0.669750244651335,0.8224043715846991
180,0.5145237548237475,0.31844022861884924,0.6639004149377594,0.6475485725067865,0.7213114754098364
181,0.5128276811645328,0.341651276952583,0.6639004149377594,0.6262719803366789,0.7103825136612021
182,0.5111316064976502,0.3648623252863169,0.6639004149377594,0.6049953881425202,0.6338797814207653
183,0.5094355328384356,0.3880733736200507,0.6639004149377594,0.5837187871586602,0.7267759562841527
184,0.507739458675387,0.41128443158720734,0.6639004149377594,0.562442194976527,0.7431693989071042
185,0.5060433850161724,0.4344954847376526,0.6639004149377594,0.5411655983995433,0.6448087431693987
186,0.5043473108531238,0.45770653547974216,0.6639004149377594,0.519889004013972,0.5054644808743167
187,0.5026512370679507,0.48091758622183167,0.6639004149377594,0.4986124096374199,0.47540983606557363
188,0.5009551630308605,0.504128638168099,0.6639004149377594,0.477335814153136,0.5191256830601092
189,0.49925908911972894,0.5273396901143664,0.6639004149377594,0.45605921867185845,0.46174863387978116
190,0.4975630149566803,0.550550740856456,0.6639004149377594,0.4347826242862872,0.3797814207650272
191,0.4958669410455487,0.5737617940069012,0.6639004149377594,0.41350602770329065,0.3661202185792347
192,0.49417086688250006,0.5969728471573464,0.6639004149377594,0.3922294311142813,0.3497267759562841
193,0.49247479322328547,0.6201838954910803,0.6639004149377594,0.3709528389441737,0.3661202185792347
194,0.4907787185564028,0.6433949534582369,0.6639004149377594,0.3496762379362627,0.30054644808743136
195,0.48900890273942554,0.6676151799007033,0.6639004149377594,0.32747457462951746,0.24863387978142049
196,0.48731282908021095,0.6908262186010143,0.6639004149377594,0.30619799127316194,0.21584699453551925
197,0.48561675441332824,0.714037276568171,0.6639004149377594,0.284921390265251,0.2103825136612021
198,0.48392068075411365,0.7372483345353276,0.6639004149377594,0.2636447892813911,0.20218579234972678
199,0.482224606087231,0.7604593925024843,0.6639004149377594,0.24236818827348022,0.1967213114754096
200,0.4805285334356845,0.7836704312027953,0.6639004149377594,0.2210916049411758,0.20765027322404395
201,0.4788324587688018,0.806881489169952,0.6639004149377594,0.19981500393326485,0.19398907103825147
202,0.47713638611725534,0.8300925086034173,0.6639004149377594,0.17853843822846494,0.19125683060109333
203,0.4754403094350365,0.853303624371111,0.6639004149377594,0.15726178428993842,0.26229508196721296
204,0.47374423678349,0.8765146630714218,0.6639004149377594,0.135985200957634,0.19945355191256864
205,0.47204816211660733,0.8997257017717328,0.6639004149377594,0.11470861757722756,0.1967213114754096
206,0.4703520894650608,0.9229367404720439,0.6639004149377594,0.09343203424492325,0.2185792349726774
207,0.9217102523149281,0.9995870344301616,0.42323651452282157,1.0,0.3333333333333335
208,0.9043605296445307,0.9787949096685502,0.42323651452282157,0.9787234326434573,0.33879781420765065
209,0.8870107747287552,0.9580027078395563,0.42323651452282157,0.957446794252113,0.35519125683060127
